m/z	Absolute Intensity
36.00	11
37.00	25
38.00	39
39.00	91
41.10	3695
42.10	1269
43.10	10495
44.05	357
45.10	101
50.10	15
51.10	19
53.10	69
54.10	285
55.15	2694
56.15	2124
57.15	16719
58.15	757
59.20	49
65.20	5
66.10	49
67.10	347
68.10	53
69.10	1296
70.15	1128
71.15	9674
72.20	317
73.10	150
74.20	75
76.10	54
78.10	22
79.10	42
81.10	75
82.10	210
83.15	780
84.15	1069
85.15	6593
86.20	382
88.20	28
89.20	65
90.10	8
94.20	112
95.20	131
96.10	171
97.15	845
98.20	398
99.20	1906
100.20	25
106.20	109
109.20	55
110.20	101
111.15	219
112.20	556
113.15	926
118.20	43
120.20	27
121.20	80
124.20	3
125.20	99
126.30	444
127.20	581
128.20	60
130.20	81
133.20	70
136.20	24
137.20	33
140.20	284
141.20	326
142.20	70
143.20	3
145.20	16
147.20	146
150.20	28
153.20	33
154.20	176
155.20	397
156.20	39
158.20	9
161.20	75
163.20	66
165.20	30
167.20	52
168.20	19
169.20	166
170.20	22
171.20	22
172.20	39
173.20	28
175.20	34
177.20	21
178.20	67
180.20	7
182.20	47
185.20	7
186.20	71
189.20	17
191.20	52
192.20	74
195.20	34
196.20	67
197.20	48
198.20	29
199.20	10
200.20	3
202.20	8
203.20	15
204.20	11
205.20	18
211.00	49
212.00	62
219.00	41
221.00	23
223.00	12
224.00	158
226.00	235
227.00	47
229.00	5
233.00	10
234.00	23
235.00	22
236.00	30
237.00	18
238.00	38
239.00	13
240.00	32
245.00	4
246.00	33
247.00	27
248.00	11
250.00	47
251.00	102
255.00	34
258.00	10
260.00	12
261.00	12
263.00	9
264.00	6
271.00	3
272.00	53
277.00	2
280.00	19
286.00	4
288.00	28
289.00	59
291.00	18
293.00	15
294.00	16
295.00	44
296.00	47
297.00	42
299.00	19
300.00	7
302.00	38
305.00	18
306.00	21
308.00	63
310.00	25
311.00	16
312.00	15
314.00	20
315.00	9
317.00	3
320.00	20
321.00	3
322.00	3
324.00	41
326.00	43
327.00	5
329.00	22
330.00	12
331.00	33
335.00	4
336.00	3
338.00	10
339.00	25
340.00	26
341.00	2
343.00	2
344.00	5
346.00	20
347.00	35
349.00	3
350.00	59
353.00	18
354.00	15
355.00	6
357.00	53
361.00	16
362.00	53
364.00	36
368.00	30
369.00	22
374.00	11
375.00	5
378.00	8
379.00	16
383.00	4
385.00	23
388.00	12
389.00	4
391.00	25
397.00	12
