m/z	Absolute Intensity
39.10	164
41.10	135
48.10	3
53.15	5
55.10	56
57.15	10
58.10	94
59.10	6
60.10	101
64.10	31
67.05	195
68.15	39
69.10	282
72.10	135
74.00	166
75.10	117
76.00	51
77.05	157
82.10	130
83.10	104
84.15	603
85.15	34
88.10	42
89.10	17
90.10	19
91.10	1321
92.10	215
94.10	131
95.10	293
96.00	32
99.10	48
103.10	47
105.10	66
107.15	113
110.10	48
111.20	89
112.10	66
115.10	283
116.20	32
119.20	330
120.20	10
121.15	159
123.20	22
124.20	119
125.20	184
127.20	73
128.20	98
129.20	35
131.20	101
132.20	153
133.15	250
138.10	114
140.10	16
143.10	10
144.10	30
148.10	9
149.10	156
150.10	25
151.10	6
152.10	78
153.10	31
156.10	67
158.10	41
159.10	92
162.10	114
167.10	42
168.10	63
169.10	84
171.10	31
173.10	66
174.10	90
176.10	45
178.10	89
186.10	10
188.10	15
189.10	57
191.10	238
192.10	163
193.10	146
194.10	130
195.10	12
196.10	88
197.10	180
198.10	47
202.10	106
203.10	75
207.00	358
207.95	295
209.00	146
209.90	89
211.00	77
212.00	88
213.00	25
214.00	45
214.90	3
216.00	56
218.90	61
220.00	62
222.00	34
228.00	40
229.00	16
231.90	7
234.00	42
236.00	106
237.00	38
239.00	32
239.90	62
241.00	11
242.00	16
243.00	5
244.90	63
246.00	71
248.00	24
249.00	36
250.90	65
253.00	18
255.00	23
257.00	30
258.00	46
259.00	35
260.00	57
261.00	58
262.90	4
263.90	12
265.00	108
268.00	1
270.00	16
271.00	16
272.00	1
275.90	29
278.00	5
280.00	13
281.00	100
283.00	72
284.00	20
285.00	4
286.00	61
289.00	32
291.00	19
292.00	18
293.00	22
294.00	13
295.00	10
296.00	1
301.00	33
304.00	14
305.00	8
306.00	28
307.00	14
309.00	25
310.00	4
316.00	43
323.00	53
324.00	40
326.00	18
327.00	23
329.00	12
332.00	28
334.00	7
335.00	32
336.00	28
337.00	27
338.00	14
344.00	113
345.00	17
346.00	15
349.00	28
350.00	1
351.00	37
353.00	36
354.00	11
355.00	153
356.00	10
360.00	88
363.00	19
364.00	20
365.00	37
367.00	2
368.00	16
373.00	4
374.00	20
375.00	23
376.00	11
382.00	4
383.00	12
385.00	8
386.00	19
390.00	16
391.00	14
392.00	50
393.00	36
394.00	31
395.00	25
396.00	20
397.00	11
399.00	17
